position (x) [m],position (y) [m],position (z) [m],velocity (x) [m/s],velocity (y) [m/s],velocity (z) [m/s],time
0.0,0.0,0.0,0.0,0.0,0.0,6.859999999999999
8.774590570299179e-08,-5.721679405979112e-07,1.1475956135100773e-08,4.3872952851495896e-05,-0.0002860839702989556,5.737978067550387e-06,6.863999999999999
3.50947146226188e-07,-2.288636389450549e-06,4.59033702639573e-08,8.772766741010221e-05,-0.000572150254127363,1.1475728996877876e-05,6.8679999999999986
7.897104842436068e-07,-5.149267297501998e-06,9.724364180456746e-08,0.0001316540015986072,-0.0008581651998983615,1.4194406773427204e-05,6.871999999999998
1.4038868200148225e-06,-9.154201848271527e-06,1.5407300874828421e-07,0.00017543416628700074,-0.0011443020754864025,1.4220276698431179e-05,6.875999999999998
2.192789326696266e-06,-1.4304363324320595e-05,2.1109121024822741e-07,0.00021901708705372096,-0.001430778662538131,1.4288824051540417e-05,6.879999999999997
3.155284498987798e-06,-2.0600930479074317e-05,2.7141490612923746e-07,0.0002622304990920449,-0.001717504914838729,1.587302388896461e-05,6.883999999999997
4.289967298980345e-06,-2.8044707540316515e-05,3.4286774313903836e-07,0.0003051109009042287,-0.00200438361578237,1.9853394615935826e-05,6.887999999999996
5.595786862392733e-06,-3.66362563159959e-05,4.300046902650934e-07,0.0003477988808019652,-0.0022913907720573216,2.371507894709168e-05,6.891999999999996
7.071775184546366e-06,-4.6376524071167266e-05,5.306021890251458e-07,0.0003901952802748516,-0.0025787431055283618,2.6583670432934523e-05,6.8959999999999955
8.716825705746797e-06,-5.726699094048908e-05,6.42843867968054e-07,0.00043232998032536436,-0.0028664903291325448,2.953716903851955e-05,6.899999999999995
1.0530007976314451e-05,-6.930868623930862e-05,7.665220073727568e-07,0.00047426115495846226,-0.003154357320277221,3.2301900663831874e-05,6.903999999999995
1.2510774850522914e-05,-8.250143140028755e-05,9.00477303135844e-07,0.0005161222821457689,-0.003442015260212248,3.467574721771172e-05,6.907999999999994
1.4658974135885405e-05,-9.684439892717188e-05,1.0422580126966921e-06,0.0005579773605354763,-0.0037294685032299136,3.6214607562712335e-05,6.911999999999994
1.6974201428248762e-05,-0.00011233697869282355,1.192885481195006e-06,0.0005996362856462026,-0.004016821379595925,3.9099126686444666e-05,6.915999999999993
1.9455526362903194e-05,-0.0001289793829193799,1.3630871020370422e-06,0.0006410261816810127,-0.0043043807336822434,4.600168373457336e-05,6.919999999999993
2.210198451526752e-05,-0.00014677286268258047,1.5672515213840513e-06,0.0006822028945011487,-0.004592359147918038,5.6080525938931205e-05,6.923999999999992
2.491251264449061e-05,-0.00016571841492725537,1.8103485056961973e-06,0.0007230611701103968,-0.004880416974419416,6.546796621714179e-05,6.927999999999992
2.7885860551677367e-05,-0.0001858161224937297,2.0911593288709297e-06,0.000763612783482982,-0.005168436808817748,7.493744537022451e-05,6.9319999999999915
3.1020877375148775e-05,-0.00020706619449799608,2.406401579120043e-06,0.0008038956282527224,-0.005456599193315436,8.268367975433222e-05,6.935999999999991
3.431623472174729e-05,-0.000229469914770919,2.7452150123196616e-06,0.000843783045046534,-0.005745260943146023,8.6723036845477e-05,6.939999999999991
3.777063446827249e-05,-0.0002530293849391387,3.100614273019914e-06,0.0008834168282160672,-0.0060344741409638376,9.097659350464938e-05,6.94399999999999
4.138355362307365e-05,-0.0002777462384801326,3.472210000542219e-06,0.0009230427491845112,-0.0063239526295331035,9.4821270256503e-05,6.94799999999999
4.515449305135822e-05,-0.0003036215797139542,3.8578318692475615e-06,0.0009624269649577762,-0.006613717987377694,9.798966409616838e-05,6.951999999999989
4.9082814540653814e-05,-0.00033065644872339706,4.251786173207321e-06,0.0010017337796900205,-0.006903716517343727,9.898748788371137e-05,6.955999999999989
5.316849000839871e-05,-0.0003588515489632881,4.6450413311239486e-06,0.001041103954182427,-0.007193833602601793,9.764009107460225e-05,6.959999999999988
5.741114295317664e-05,-0.00038820766878222774,5.032716398557255e-06,0.0010802225182065404,-0.007484226306868022,9.61974426420511e-05,6.963999999999988
6.180986651784342e-05,-0.0004187257774464065,5.415116990146743e-06,0.0011191392641268477,-0.007774828025221363,9.500285315269253e-05,6.9679999999999875
6.636420084672673e-05,-0.0004504064510800233,5.795055094352918e-06,0.0011580279003148106,-0.008065508791587033,9.496619895039516e-05,6.971999999999987
7.10735012345271e-05,-0.0004832499688123044,6.1754403892023215e-06,0.0011966222935853711,-0.008356250074553522,9.522644847430684e-05,6.975999999999987
7.593636272842171e-05,-0.0005172567755655248,6.554108099577845e-06,0.0012348084533619365,-0.008647153302056674,9.410740671345508e-05,6.979999999999986
8.095147045772741e-05,-0.0005524277334206279,6.936094675416726e-06,0.0012727454112909135,-0.008938325625494894,9.688588120598496e-05,6.983999999999986
8.611800566232218e-05,-0.0005887640048331268,7.34592487842076e-06,0.001310522191006468,-0.009229810080754566,0.00010802922029603224,6.987999999999985
9.143516579372869e-05,-0.0006262667909929067,7.805641270327157e-06,0.0013480578746967872,-0.009521582999135357,0.00012182897565716644,6.991999999999985
9.690235790923337e-05,-0.0006649370063252128,8.323940010342782e-06,0.001385538183055555,-0.0098135246670177,0.00013732039435064537,6.9959999999999845
0.00010251980284893169,-0.0007047751951701189,8.907850516632139e-06,0.0014231842867936063,-0.010105569755435341,0.00015463485879403294,6.999999999999984
0.00010828790010995778,-0.0007457822597970846,9.55603453881274e-06,0.0014608643437194345,-0.010397962558047487,0.00016945715229626758,7.003999999999984
0.00011420662871879023,-0.0007879596281157652,1.0260966498456498e-05,0.0014984999606967894,-0.010690721601292783,0.00018300882752561167,7.007999999999983
0.00012027559314388767,-0.0008313084272716919,1.101862655764677e-05,0.001535982251851932,-0.010983677976670544,0.00019582120206952427,7.011999999999983
0.00012649422795287402,-0.000875829522070859,1.1826975488833299e-05,0.0015733351526412455,-0.011276869422913028,0.00020835326352374042,7.015999999999982
0.00013286147826269858,-0.0009215239742603791,1.268854149592434e-05,0.0016102900022710344,-0.01157035667184699,0.00022242974002178076,7.019999999999982
0.0001393762657947459,-0.0009683932665867728,1.3610857526950284e-05,0.0016471037637526195,-0.011864289491349869,0.00023872827549119082,7.023999999999981
0.00014603874662592084,-0.0010164390688284322,1.4602114711265685e-05,0.001684136651834849,-0.012158611629479734,0.0002569003166665098,7.027999999999981
0.00015284925748938448,-0.0010656627810514945,1.566639459031282e-05,0.0017211187798969747,-0.012453244482051434,0.00027523962285705753,7.0319999999999805
0.00015980778176642187,-0.001116065005253209,1.6806722947781905e-05,0.0017581433586217174,-0.012747867618805758,0.00029492455587748625,7.03599999999998
0.00016691460636299347,-0.0011676460219633656,1.802891000816848e-05,0.0017952689396640903,-0.013042640736272537,0.00031616897431580075,7.03999999999998
0.0001741698573708042,-0.0012204069668614414,1.9335936810103023e-05,0.0018323565642412696,-0.013337831712765367,0.00033734442665146963,7.043999999999979
0.00018157307635557402,-0.001274349454835835,2.0726416928335753e-05,0.001869252928143642,-0.013633412274431407,0.0003578956324648957,7.047999999999979
0.00018912322683352272,-0.001329475132952286,2.2198546446509925e-05,0.001905822310830712,-0.013929426783794097,0.0003781691266221899,7.051999999999978
0.00019681902948645986,-0.001385785371328156,2.375704716957185e-05,0.0019420790156378616,-0.014225692404140847,0.000401081234908773,7.055999999999978
0.0002046593846435424,-0.0014432810118368566,2.5408883342924728e-05,0.00197809856290341,-0.014522127850209439,0.0004248368517676654,7.059999999999977
0.0002126433028028577,-0.001501962558125633,2.715183224406001e-05,0.00201386051675424,-0.014818645294178754,0.0004466375987999741,7.063999999999977
0.00022076974659925098,-0.0015618303785786115,2.8985855198889743e-05,0.0020493613814423993,-0.015115264932310472,0.00047037387861489336,7.0679999999999765
0.0002290378443168205,-0.001622884806459713,3.091906945654542e-05,0.0020846874773423627,-0.015411949008240269,0.0004962332502129457,7.071999999999976
0.0002374466959407918,-0.0016851262791536706,3.295555930360422e-05,0.0021197383346432835,-0.015708787338738504,0.000522011673316456,7.075999999999976
0.0002459954947909218,-0.001748555624641742,3.509393326080253e-05,0.002154661090421723,-0.016005885405297186,0.0005471753052826998,7.079999999999975
0.0002546840490950421,-0.0018131740512928607,3.732801026250279e-05,0.002189616061638415,-0.016303327920262154,0.0005698631955674288,7.083999999999975
0.0002635117445507166,-0.0018789828254919326,3.9649782438932106e-05,0.0022242316661988458,-0.016601059179273823,0.0005910228926472315,7.087999999999974
0.00027247667340890255,-0.0019459828438419388,4.2056361551906366e-05,0.002258232762894113,-0.016898949995729332,0.0006122666638398969,7.091999999999974
0.0002815768534527554,-0.0020141748005911135,4.454340657556917e-05,0.0022918572590323377,-0.01719702837885809,0.0006312558479915041,7.095999999999973
0.0002908107920575393,-0.002083559452869084,4.71023501631854e-05,0.0023251120433596013,-0.017495297760127152,0.0006482159458166095,7.099999999999973
0.0003001779933734888,-0.002154137528483537,4.973074402505478e-05,0.002358488614615154,-0.017793740047099355,0.0006659809851180825,7.103999999999973
0.00030967911808174245,-0.002225909701503014,5.2434116860820133e-05,0.002392073739511671,-0.018092346462639193,0.0006857054327645927,7.107999999999972
0.00031931486322867464,-0.002298876659129016,5.521728983915205e-05,0.0024257988339544336,-0.018391132350361813,0.000705881056401367,7.111999999999972
0.0003290851554154797,-0.002373039364771553,5.808325099364932e-05,0.0024593472594481073,-0.0186902204709067,0.0007270995208472685,7.115999999999971
0.00033898931848414486,-0.0024483988197534735,6.103904504244763e-05,0.0024927342748844727,-0.018989507020053482,0.0007507975035518869,7.119999999999971
0.00034902673321946805,-0.0025249558219123543,6.408879934312072e-05,0.00252597309277712,-0.019288994059386888,0.0007740796467846565,7.12399999999997
0.0003591965650338236,-0.0026027113397836987,6.722791851101222e-05,0.002558942814400646,-0.01958876487628543,0.0007954799371610905,7.12799999999997
0.00036949805187476794,-0.0026816660826353487,7.04525174932798e-05,0.002591800606071526,-0.019888606549539587,0.0008168195539727067,7.1319999999999695
0.0003799311754985433,-0.0027618202529110978,7.375898284766421e-05,0.002624761205816149,-0.02018847858833484,0.0008364131232194937,7.135999999999969
0.00039049579908901065,-0.002843174172830351,7.713699088579425e-05,0.002657550589417521,-0.020488481371291733,0.0008525908958455234,7.139999999999969
0.00040119057129411515,-0.0029257282417553348,8.057629580748458e-05,0.0026898355131347146,-0.020788553091199993,0.0008670615649996451,7.143999999999968
0.0004120135346720942,-0.003009482865835112,8.407197949033884e-05,0.0027216461758548193,-0.021088758948688634,0.000880780276427487,7.147999999999968
0.00042296310759451766,-0.0030944381150492723,8.762403280448615e-05,0.0027531402853568925,-0.021388865658391525,0.000895246380646171,7.151999999999967
0.0004340385815429798,-0.003180593601968803,9.123708598574793e-05,0.0027845966888741806,-0.02168887780137385,0.0009112802099847174,7.155999999999967
0.00044523985396486323,-0.0032679489565286012,9.491828143607684e-05,0.0028160395220675344,-0.02198879947852522,0.000929317515179733,7.159999999999966
0.0004565670037978727,-0.003356503723428674,9.867510197577272e-05,0.0028475353944372216,-0.02228858397151124,0.0009490927546682075,7.163999999999966
0.0004680206453662205,-0.0034462576286157652,0.00010251575912066443,0.0028792853897366753,-0.02258836862203428,0.0009712358177776538,7.1679999999999655
0.0004796013706924285,-0.00353721091857308,0.00010644934034255467,0.002911077273367318,-0.022888276356623008,0.0009955547931674647,7.171999999999965
0.0004913093035328889,-0.003629364571883384,0.0001104791941181536,0.0029428891468629,-0.02318855029852897,0.0010193720946319973,7.175999999999965
0.0005031447896742205,-0.0037227197237011205,0.0001146014701361419,0.002974853923802876,-0.02348902561033929,0.0010417659143621522,7.179999999999964
0.000515108135604253,-0.0038172767986368807,0.00011881358381328635,0.0030068190412133474,-0.02378951185754072,0.00106429092421007,7.183999999999964
0.0005271995519044979,-0.003913035898370576,0.0001231141191968246,0.0030388891089091316,-0.02409003800930689,0.0010859767675590534,7.187999999999963
0.0005394197485647526,-0.0040099968905546405,0.00012749895510051601,0.0030712092212181797,-0.024390458082724983,0.001106441184286652,7.191999999999963
0.0005517698405377575,-0.004108159864724795,0.0001319674234057028,0.003103836765284263,-0.024691029002352337,0.0011277929683067428,7.195999999999962
0.0005642507084147989,-0.004207525609778764,0.00013651887378074182,0.0031365971732364665,-0.02499184352463212,0.0011479322192127627,7.199999999999962
0.0005768628349834073,-0.004308094262980568,0.00014114535062846077,0.0031694661110677146,-0.025292483076269735,0.0011653062046467185,7.2039999999999615
0.000589606180372264,-0.004409865228604592,0.00014583899271449367,0.0032022065833606063,-0.02559299973574189,0.0011815148383697292,7.207999999999961
0.0006024791662882037,-0.0045128378847143075,0.00015060083030164062,0.0032342863746092484,-0.02589332831911613,0.0011994039552037491,7.211999999999961
0.0006154793180666026,-0.004617011545472953,0.0001554360965524763,0.003265789514590175,-0.026193502060206573,0.0012182291702140871,7.21599999999996
0.0006286052434584647,-0.004722386306469152,0.00016034827926962464,0.0032971731813408824,-0.026493878437893036,0.0012378621883600827,7.21999999999996
0.0006418565351711415,-0.004828962869647912,0.0001653386786628906,0.003328472674997479,-0.026794403151486706,0.00125733750827289,7.223999999999959
0.0006552330605259482,-0.00493674173030065,0.00017040087210527506,0.0033597900024058477,-0.027095027174882345,0.0012737592129193373,7.227999999999959
0.0006687349173047812,-0.005045722947383723,0.00017552295155808453,0.003391138387010683,-0.027395581366653793,0.001287280513485399,7.2319999999999585
0.0006823617096889645,-0.0051559060902182565,0.00018069637282569734,0.0034222578050809808,-0.027695990050613028,0.0012994301203210056,7.235999999999958
0.0006961126835635388,-0.005267291274519933,0.00018592187227610752,0.0034532291322061344,-0.027996602100225445,0.0013133196048840787,7.239999999999958
0.0007099870666368387,-0.005379879262395358,0.00019120646821212608,0.0034839624044437777,-0.028297391837487026,0.001328978363125202,7.243999999999957
0.0007239843463891478,-0.005493670361828604,0.00019655729713802622,0.0035146774717108153,-0.028598157879136464,0.0013464360998248636,7.247999999999957
0.0007381046184331366,-0.005608664449597343,0.00020198032862429202,0.003545458550283551,-0.028898886005232733,0.0013650796433080357,7.251999999999956
0.0007523481947160957,-0.005724861570426199,0.0002074779574683855,0.003576329591196005,-0.029199674409195166,0.0013837347787386987,7.255999999999956
0.0007667154387908769,-0.00584226195503447,0.00021304980431827486,0.003607292446194559,-0.029500517894940615,0.0014021886462059852,7.259999999999955
0.000781206550438448,-0.005960865539149884,0.00021869247510550606,0.003638263377591009,-0.029801274162765887,0.0014191467474096056,7.263999999999955
0.0007958212570409399,-0.006080671893599798,0.00022440185913810386,0.0036690899236549606,-0.030101903062191147,0.0014355452688892994,7.2679999999999545
0.0008105585691222406,-0.006201680980965386,0.00023017472611151118,0.0036995661169954095,-0.03040264062060344,0.0014508882178143592,7.271999999999954
0.0008254173285618765,-0.00632389356004176,0.00023600331608689888,0.0037298136028225764,-0.03070364891758357,0.0014634067698794907,7.275999999999954
0.0008403966918181333,-0.006447310257220668,0.00024187382168310522,0.0037598680253057557,-0.031004699671870174,0.0014718460282236731,7.279999999999953
0.0008554961202028162,-0.006571931401781948,0.00024776777911816205,0.0037898461670357302,-0.03130587260876982,0.0014751326893047503,7.283999999999953
0.0008707153976337214,-0.0066977573694400345,0.0002536746485377211,0.0038197925484168564,-0.03160711122027351,0.0014783020204747713,7.287999999999952
0.0008860545108352582,-0.006824788232845448,0.00025960356108518137,0.003849764052351536,-0.03190832048243337,0.0014861542532553782,7.291999999999952
0.0009015140956216655,-0.00695302384874844,0.0002655718679611182,0.003880028340852163,-0.03220948746906247,0.0014979991847130518,7.295999999999951
0.0009170953051825479,-0.0070824635521425155,0.00027159116749957016,0.003910576439589023,-0.03251036422797552,0.0015116505845129138,7.299999999999951
0.0009327986350556486,-0.0072131067079599905,0.00027766520298127276,0.003941088496961333,-0.03281121368076199,0.00152536715633839,7.3039999999999505
0.0009486238996072832,-0.007344953274669538,0.00028379462719880664,0.003971543778856009,-0.03311206967401205,0.0015393449524285427,7.30799999999995
0.0009645716267874273,-0.007478002976299471,0.00028997960668869835,0.0040023198112160195,-0.03341278114095406,0.001553144792517308,7.31199999999995
0.000980642885698579,-0.007612255709280381,0.00029622008013108946,0.004033309644359849,-0.0337135853495008,0.0015670919286782518,7.315999999999949
0.000996837792287499,-0.007747712171983227,0.0003025187846252509,0.004064143650100195,-0.03401464600192213,0.0015822603184024611,7.319999999999949
0.001013155723913939,-0.007884373022375117,0.0003088792018566526,0.004094822163119808,-0.03431577919402297,0.001597948297298394,7.323999999999948
0.0010295960371688483,-0.008022238317500168,0.0003153031637387538,0.004125334464334878,-0.034616868368502446,0.001614032643752203,7.327999999999948
0.0010461581584439083,-0.008161307759276416,0.0003217922663940783,0.004155726173195101,-0.034917852519621664,0.0016305186839100467,7.3319999999999474
0.0010628417868849228,-0.00830158074716626,0.00032834065864823707,0.004186088047312146,-0.03521864142530078,0.0016436774431693446,7.335999999999947
0.0010796469365386386,-0.008443057373322647,0.0003349387049584506,0.004216486779545715,-0.03551967165289242,0.0016553457119374353,7.339999999999947
0.0010965731854818267,-0.00858573861682969,0.00034158654023389723,0.004246637692048377,-0.03582095010062884,0.001668571925785869,7.343999999999946
0.0011136194531807414,-0.008729624867861682,0.00034828664084529014,0.004276496157408959,-0.036122175415367275,0.0016814783799105864,7.347999999999946
0.001130784737083989,-0.008874716210497732,0.0003550349879165665,0.004306145794214926,-0.03642349590265793,0.0016926951557275837,7.351999999999945
0.0011480686953223363,-0.009021013432775917,0.0003618275626754811,0.004335833324958714,-0.0367251152364349,0.001703592223729728,7.355999999999945
0.0011654715709662068,-0.009168517743119449,0.0003686706366975902,0.004365604496976493,-0.037027039935330616,0.0017179447873248315,7.359999999999944
0.0011829929105235712,-0.009317230537883251,0.0003755713797745154,0.004395065281705641,-0.03732935744657084,0.0017324267511377649,7.363999999999944
0.0012006315024058422,-0.009467153077886894,0.00038252398495789195,0.004424230659429894,-0.03763191255525045,0.001743875840550529,7.3679999999999435
0.0012183865835325206,-0.009618285602962445,0.0003895250876493742,0.0044533099039093275,-0.037934349982524845,0.001756675505190585,7.371999999999943
0.0012362580693196512,-0.009770627816960762,0.0003965825735388602,0.00448243298965602,-0.038236757016633996,0.0017720674395524361,7.375999999999943
0.0012542460433515256,-0.009924179763430036,0.0004036992179694886,0.004511554026281195,-0.03853921621800314,0.001786254775761754,7.379999999999942
0.0012723504130299113,-0.010078941870284405,0.00041086803742191073,0.004540630812911618,-0.03884183720918091,0.0017981549504493151,7.383999999999942
